Time(ms),Position
0,0
100,0.02
200,0.08
300,0.175
400,0.275
500,0.375
600,0.476
700,0.576
800,0.676
900,0.776
1000,0.876
1100,0.976
1200,1.076
1300,1.176
1400,1.276
1500,1.376
1600,1.477
1700,1.577
1800,1.677
1900,1.777
2000,1.877
2100,1.977
2200,2.078
2300,2.178
2400,2.278
2500,2.378
2600,2.478
2700,2.578
2800,2.678
2900,2.778
3000,2.878
3100,2.978
3200,3.078
3300,3.178
3400,3.279
3500,3.379
3600,3.479
3700,3.579
3800,3.679
3900,3.779
4000,3.879
4100,3.979
4200,4.08
4300,4.18
4400,4.28
4500,4.38
4600,4.48
4700,4.58
4800,4.68
4900,4.78
5000,4.88
5100,4.98
5200,5.081
5300,5.181
5400,5.281
5500,5.381
5600,5.481
5700,5.581
5800,5.682
5900,5.782
6000,5.882
6100,5.982
6200,6.082
6300,6.182
6400,6.283
6500,6.383
6600,6.483
6700,6.583
6800,6.683
6900,6.783
7000,6.883
7100,6.984
7200,7.084
7300,7.184
7400,7.284
7500,7.384
7600,7.484
7700,7.585
7800,7.685
7900,7.785
8000,7.885
8100,7.985
8200,8.085
8300,8.186
8400,8.286
8500,8.386
8600,8.486
8700,8.586
8800,8.686
8900,8.786
9000,8.887
9100,8.987
9200,9.087
9300,9.187
9400,9.287
9500,9.387
9600,9.488
9700,9.588
9800,9.688
9900,9.788
