Time(ms),Position
0,0
100,0.0255025
200,0.101
300,0.201
400,0.301
500,0.401
600,0.501
700,0.601
800,0.702
900,0.802
1000,0.902
1100,1.002
1200,1.102
1300,1.202
1400,1.303
1500,1.403
1600,1.503
1700,1.603
1800,1.703
1900,1.803
2000,1.904
2100,2.004
2200,2.104
2300,2.204
2400,2.304
2500,2.404
2600,2.505
2700,2.605
2800,2.705
2900,2.805
3000,2.905
3100,3.005
3200,3.105
3300,3.205
3400,3.306
3500,3.406
3600,3.506
3700,3.606
3800,3.706
3900,3.806
4000,3.906
4100,4.006
4200,4.106
4300,4.206
4400,4.307
4500,4.407
4600,4.507
4700,4.607
4800,4.707
4900,4.808
5000,4.908
5100,5.008
5200,5.108
5300,5.208
5400,5.308
5500,5.408
5600,5.509
5700,5.609
5800,5.709
5900,5.809
6000,5.909
6100,6.009
6200,6.109
6300,6.209
6400,6.309
6500,6.41
6600,6.51
6700,6.61
6800,6.71
6900,6.81
7000,6.91
7100,7.01
7200,7.11
7300,7.21
7400,7.31
7500,7.411
7600,7.511
7700,7.611
7800,7.711
7900,7.811
8000,7.911
8100,8.011
8200,8.112
8300,8.212
8400,8.312
8500,8.412
8600,8.512
8700,8.613
8800,8.713
8900,8.813
9000,8.913
9100,9.013
9200,9.113
9300,9.214
9400,9.314
9500,9.414
9600,9.514
9700,9.614
9800,9.714
9900,9.814
