Time(ms),Position
0,4e-06
100,0.040804
200,0.1385
300,0.2385
400,0.3385
500,0.4385
600,0.5385
700,0.6395
800,0.7395
900,0.8395
1000,0.9395
1100,1.0395
1200,1.1395
1300,1.2395
1400,1.3395
1500,1.4395
1600,1.5405
1700,1.6405
1800,1.7405
1900,1.8405
2000,1.9405
2100,2.0405
2200,2.1405
2300,2.2405
2400,2.3405
2500,2.4405
2600,2.5405
2700,2.6415
2800,2.7415
2900,2.8415
3000,2.9415
3100,3.0415
3200,3.1415
3300,3.2415
3400,3.3415
3500,3.4415
3600,3.5415
3700,3.6415
3800,3.7415
3900,3.8425
4000,3.9425
4100,4.0425
4200,4.1425
4300,4.2425
4400,4.3425
4500,4.4425
4600,4.5425
4700,4.6435
4800,4.7435
4900,4.8435
5000,4.9435
5100,5.0435
5200,5.1435
5300,5.2435
5400,5.3435
5500,5.4445
5600,5.5445
5700,5.6445
5800,5.7445
5900,5.8445
6000,5.9445
6100,6.0445
6200,6.1445
6300,6.2445
6400,6.3455
6500,6.4455
6600,6.5455
6700,6.6455
6800,6.7455
6900,6.8455
7000,6.9455
7100,7.0455
7200,7.1455
7300,7.2455
7400,7.3465
7500,7.4465
7600,7.5465
7700,7.6465
7800,7.7465
7900,7.8465
8000,7.9465
8100,8.0465
8200,8.1465
8300,8.2465
8400,8.3475
8500,8.4475
8600,8.5475
8700,8.6475
8800,8.7475
8900,8.8475
9000,8.9475
9100,9.0475
9200,9.1475
9300,9.2475
9400,9.3485
9500,9.4485
9600,9.5485
9700,9.6485
9800,9.7485
9900,9.8485
